#Creator: wheelEventBuffer
#Creation time: Mon May 20 09:05:02 2019
#Time	Angular velocity
#[s]	[rad/s]
0.769494	0.662124
1.194814	0.921569
1.511308	1.109586
1.779612	1.258560
2.019212	1.380556
2.239502	1.483339
2.445772	1.570749
2.641122	1.650655
2.827446	1.726188
3.005972	1.796839
3.177678	1.865487
3.343270	1.931647
3.503262	1.997808
3.658002	2.064420
3.807744	2.133307
3.952622	2.204998
4.092804	2.279523
4.228370	2.356183
4.359566	2.436212
4.486454	2.517060
4.609404	2.596229
4.728710	2.673923
4.844718	2.746147
4.957836	2.811420
5.068516	2.868301
5.177122	2.919587
5.283918	2.965557
5.389114	3.008439
5.492880	3.048018
5.595330	3.085620
5.696530	3.123166
5.796542	3.159920
5.895374	3.198005
5.993008	3.237020
6.089416	3.280215
6.184522	3.325774
6.278296	3.375153
6.370662	3.426544
6.461652	3.480526
6.551190	3.535998
6.639372	3.590310
6.726244	3.644454
6.811876	3.695296
6.896382	3.741060
6.979914	3.781953
7.062586	3.819937
7.144464	3.854904
7.225630	3.886955
7.306156	3.916416
7.386084	3.945138
7.465438	3.972878
7.544252	3.999481
7.622516	4.028716
7.700190	4.059744
7.777250	4.093814
7.853654	4.129328
7.929376	4.168448
8.004362	4.209445
8.078618	4.253673
8.152066	4.299193
8.224776	4.343056
8.296752	4.388190
8.368014	4.430644
8.438622	4.468710
8.508670	4.502010
8.578214	4.534108
8.647302	4.561495
8.715986	4.587070
8.784304	4.610226
8.852290	4.631978
8.919948	4.654625
8.987288	4.675685
9.054310	4.699747
9.120972	4.724484
9.187286	4.751063
9.253182	4.781578
9.318658	4.816030
9.383642	4.850832
9.448168	4.888269
9.512170	4.927216
9.575698	4.963649
9.638752	5.002377
9.701340	5.038641
9.763494	5.070520
9.825286	5.098664
9.886748	5.125114
9.947914	5.148295
10.008808	5.170154
10.069456	5.190485
10.129874	5.208729
10.190080	5.227798
10.250080	5.244379
10.309866	5.264768
10.369416	5.285673
10.428712	5.310332
10.487720	5.336673
10.546420	5.367308
10.604776	5.398297
10.662798	5.432462
10.720432	5.467443
10.777722	5.499795
10.834666	5.535846
10.891258	5.568225
10.947528	5.598390
11.003518	5.623644
11.059260	5.649737
11.114762	5.671154
11.170062	5.691703
11.225170	5.710118
11.280112	5.726355
11.334896	5.742474
11.389538	5.756574
11.444026	5.774562
11.498344	5.792235
11.552476	5.814534
11.606386	5.838957
11.660066	5.866653
11.713476	5.895497
11.766630	5.927086
11.819482	5.959241
11.872072	5.988320
11.924396	6.020914
11.976450	6.051766
12.028246	6.078698
12.079830	6.101839
12.131220	6.126112
12.182422	6.145766
12.233462	6.164579
12.284352	6.182534
12.335106	6.197902
12.385732	6.212610
12.436248	6.225413
12.486650	6.241244
12.536920	6.256657
12.587050	6.276908
12.637006	6.299059
12.686772	6.326458
12.736318	6.353583
12.785654	6.383794
12.834740	6.414293
12.883608	6.442971
12.932256	6.474307
12.980676	6.503794
13.028880	6.530563
13.076908	6.552356
13.124778	6.574020
13.172494	6.594443
13.220076	6.611096
13.267538	6.627273
13.314894	6.641564
13.362148	6.654507
13.409320	6.665802
13.456398	6.680260
13.503374	6.694495
13.550234	6.713379
13.596952	6.734389
13.643520	6.759020
13.689906	6.783832
13.736130	6.812075
13.782142	6.840256
13.827986	6.865369
13.873652	6.895204
13.919130	6.922247
13.964436	6.946430
14.009592	6.967073
14.054620	6.988772
14.099514	7.006853
14.144298	7.023772
14.188984	7.037933
14.233582	7.050253
14.278108	7.061346
14.322568	7.070563
14.366960	7.083636
14.411268	7.096437
14.455486	7.112825
14.499588	7.132203
14.543562	7.156900
14.587380	7.180127
14.631060	7.207141
14.674562	7.233359
14.717924	7.257086
14.761138	7.284008
14.804196	7.310109
14.847104	7.332632
14.889894	7.351506
14.932572	7.371862
14.975140	7.388506
15.017618	7.404178
15.060014	7.416763
15.102338	7.427987
15.144606	7.437835
15.186820	7.445944
15.228978	7.458318
15.271066	7.469312
15.313080	7.485686
15.354992	7.503565
15.396798	7.526936
15.438468	7.549365
15.480018	7.574848
15.521414	7.600505
15.562690	7.622265
15.603840	7.648244
15.644856	7.672152
15.685746	7.693571
15.726534	7.710565
15.767228	7.730677
15.807826	7.746690
15.848344	7.760851
15.888792	7.773526
15.929182	7.783155
15.969520	7.792808
16.009816	7.800161
16.050064	7.811021
16.090256	7.821133
16.130384	7.836350
16.170424	7.853982
16.210368	7.876824
16.250192	7.898212
16.289914	7.922911
16.329498	7.946961
16.368976	7.968327
16.408346	7.993061
16.447596	8.016721
16.486732	8.037230
16.525778	8.054540
16.564740	8.072753
16.603620	8.088550
16.642428	8.102318
16.681176	8.113617
16.719874	8.123268
16.758528	8.131678
16.797146	8.137998
16.835728	8.147706
16.874260	8.157862
16.912736	8.171867
16.951136	8.188908
16.989460	8.208164
17.027696	8.222773
17.065890	8.233117
17.104042	8.234843
17.142220	8.224495
17.180460	8.209880
17.218786	8.187201
17.257222	8.159981
17.295794	8.129153
17.334516	8.098558
17.373390	8.064878
17.412428	8.030656
17.451636	7.994688
17.491030	7.956219
17.530616	7.916123
17.570408	7.874060
17.610402	7.836350
17.650588	7.798224
17.690966	7.763536
17.731506	7.732199
17.772212	7.704892
17.813050	7.677777
17.854046	7.652342
17.895156	7.627446
17.936422	7.599402
17.977832	7.575214
18.019380	7.549002
18.061076	7.520090
18.102948	7.485686
18.145014	7.452303
18.187274	7.416063
18.229740	7.379828
18.272428	7.340170
18.315350	7.299239
18.358512	7.257422
18.401934	7.213098
18.445616	7.171604
18.489544	7.130908
18.533714	7.094194
18.578102	7.059124
18.622704	7.029115
18.667484	6.999360
18.712468	6.971712
18.757612	6.943360
18.802958	6.913108
18.848494	6.886135
18.894218	6.856977
18.940142	6.825098
18.986294	6.789110
19.032694	6.753789
19.079352	6.713379
19.126290	6.673165
19.173524	6.630071
19.221070	6.585320
19.268946	6.538991
19.317166	6.491430
19.365730	6.447202
19.414624	6.402528
19.463852	6.361302
19.513382	6.322893
19.563206	6.288468
19.613294	6.253917
19.663664	6.222454
19.714268	6.191306
19.765150	6.157812
19.816300	6.127068
19.867722	6.093790
19.919432	6.057133
19.971474	6.016533
20.023878	5.975336
20.076658	5.929771
20.129848	5.883573
20.183472	5.834620
20.237556	5.783705
20.292118	5.732206
20.347182	5.678946
20.402752	5.628480
20.458820	5.577716
20.515378	5.531557
20.572396	5.487115
20.629864	5.446400
20.687750	5.406844
20.746066	5.369326
20.804764	5.332868
20.863892	5.294046
20.923444	5.258072
20.983426	5.218939
21.043874	5.175776
21.104860	5.128126
21.166430	5.078553
21.228628	5.024780
21.291496	4.969931
21.355080	4.913345
21.419408	4.854730
21.484522	4.795446
21.550460	4.734452
21.617238	4.675546
21.684858	4.616459
21.753334	4.559906
21.822638	4.505626
21.892762	4.454896
21.963666	4.405543
22.035362	4.359690
22.107784	4.314782
22.180996	4.268004
22.255016	4.222230
22.329882	4.172656
22.405674	4.118501
22.482532	4.058695
22.560564	3.995514
22.639884	3.927875
22.720600	3.858123
22.802824	3.785507
22.886666	3.710572
22.972236	3.634000
23.059648	3.555769
23.148996	3.478368
23.240352	3.400802
23.333802	3.324577
23.429390	3.249341
23.527180	3.177434
23.627150	3.107411
23.729388	3.040584
23.833842	2.974655
23.940706	2.907052
24.050130	2.838139
24.162378	2.763394
24.277864	2.681455
24.397236	2.588315
24.521268	2.484337
24.650832	2.372159
24.786868	2.253977
24.930544	2.128537
25.083322	1.994687
25.247234	1.851677
25.425086	1.697498
25.621022	1.530319
25.841590	1.346278
26.098762	1.138646
26.419882	0.890489
26.975374	0.498946
27.728776	0.329129
28.475092	0.383167
29.194760	0.694757
29.604290	0.901280
29.927880	1.077209
30.202672	1.234272
30.445138	1.376141
30.664282	1.505474
30.865768	1.624200
31.053332	1.734709
31.229600	1.837640
31.396428	1.934740
31.555340	2.025449
31.707610	2.106755
31.854492	2.176492
31.997068	2.233942
32.136238	2.283798
32.272538	2.328313
32.406256	2.371479
32.537518	2.414567
32.666434	2.460212
32.792808	2.510703
32.916582	2.565990
33.037600	2.626135
33.155842	2.688799
33.271324	2.753416
33.384144	2.817370
33.494424	2.881984
33.602304	2.943937
33.707958	3.004584
33.811550	3.062638
33.913234	3.117773
34.013154	3.172044
34.111476	3.220891
34.208374	3.265282
34.304058	3.302837
34.398744	3.334812
34.492578	3.362869
34.585614	3.390891
34.677870	3.418193
34.769384	3.448207
34.860010	3.483228
34.949708	3.521570
35.038362	3.564726
35.125928	3.610943
35.212344	3.659909
35.297620	3.708995
35.381758	3.759595
35.464788	3.808453
35.546770	3.856418
35.627756	3.902793
35.707798	3.948014
35.786938	3.992163
35.865272	4.031094
35.942878	4.066471
36.019860	4.096162
36.096344	4.120770
36.172392	4.142395
36.248022	4.165574
36.323224	4.187785
36.398040	4.211363
36.472374	4.239323
36.546220	4.269512
36.619490	4.304377
36.692158	4.342215
36.764168	4.382802
36.835516	4.423906
36.906190	4.467185
36.976184	4.509765
37.045530	4.551318
37.114258	4.591629
37.182406	4.629248
37.250010	4.665547
37.317136	4.696796
37.383820	4.725905
37.450126	4.750632
37.516122	4.771701
37.581842	4.789743
37.647298	4.809689
37.712478	4.828020
37.777426	4.847389
37.842064	4.871139
37.906386	4.897261
37.970326	4.927988
38.033870	4.960201
38.096970	4.996807
38.159616	5.032829
38.221804	5.071666
38.283524	5.108447
38.344804	5.144923
38.405662	5.180214
38.466122	5.213050
38.526212	5.243854
38.585980	5.270421
38.645444	5.296009
38.704644	5.317883
38.763630	5.335585
38.822430	5.351400
38.881040	5.369142
38.939448	5.385711
38.997700	5.402195
39.055732	5.423084
39.113544	5.445079
39.171094	5.471633
39.228350	5.501721
39.285280	5.534481
39.341876	5.567436
39.398126	5.603383
39.454024	5.637166
39.509590	5.670540
39.564840	5.702448
39.619794	5.731578
39.674472	5.760585
39.728900	5.784770
39.783100	5.808084
39.837102	5.827260
39.890948	5.843084
39.944654	5.857246
39.998218	5.873014
40.051634	5.887322
40.104938	5.902143
40.158074	5.920384
40.211048	5.940535
40.263818	5.964898
40.316364	5.992204
40.368658	6.022299
40.420694	6.052932
40.472454	6.086235
40.523938	6.118238
40.575152	6.149856
40.626120	6.179129
40.676848	6.206964
40.727360	6.232824
40.777682	6.254913
40.827826	6.275655
40.877832	6.289978
40.927776	6.294515
40.977728	6.287712
41.027766	6.272146
41.077968	6.243725
41.128454	6.205983
41.179244	6.164337
41.230394	6.120383
41.281888	6.080345
41.333724	6.041060
41.385862	6.008478
41.438298	5.975109
41.491014	5.943682
41.544016	5.911249
41.597310	5.878729
41.650916	5.843302
41.704850	5.806581
41.759138	5.768200
41.813818	5.724685
41.868906	5.681410
41.924438	5.633527
41.980474	5.581283
42.037046	5.527275
42.094156	5.475066
42.151812	5.420838
42.210072	5.366391
42.268882	5.315904
42.328256	5.266710
42.388160	5.221194
42.448578	5.178506
42.509470	5.139368
42.570836	5.099988
42.632662	5.063328
42.694946	5.024619
42.757718	4.985547
42.820998	4.944431
42.884824	4.900622
42.949236	4.855330
43.014294	4.804687
43.080036	4.753219
43.146534	4.696655
43.213880	4.635532
43.282142	4.571318
43.351360	4.507307
43.421566	4.441292
43.492844	4.375965
43.565130	4.315019
43.638442	4.255978
43.712732	4.201113
43.787986	4.148631
43.864168	4.098941
43.941286	4.049279
44.019342	4.001111
44.098364	3.950894
44.178406	3.899790
44.259524	3.847162
44.341790	3.791813
44.425300	3.733946
44.510192	3.670342
44.596598	3.603322
44.684720	3.529641
44.774796	3.449419
44.867068	3.363950
44.961718	3.276998
45.058920	3.188269
45.158902	3.099379
45.261700	3.013807
45.367426	2.930700
45.476114	2.851483
45.587862	2.773445
45.702770	2.696553
45.821052	2.618168
45.942954	2.539235
46.068786	2.457326
46.198990	2.372123
46.334100	2.282902
46.474798	2.188287
46.622030	2.086411
46.777202	1.972619
46.942350	1.844675
47.120684	1.696361
47.317474	1.522325
47.541842	1.316755
47.813058	1.065944
48.200544	0.718670
49.070948	0.235905
49.950104	0.583612
50.426702	0.869246
50.759000	1.076714
51.033282	1.246407
51.273662	1.388991
51.491594	1.508916
51.693784	1.609324
51.884422	1.694586
52.066120	1.768596
52.240612	1.836136
52.408946	1.899368
52.571866	1.959674
52.729896	2.018188
52.883440	2.075686
53.032744	2.134147
53.177984	2.193114
53.319320	2.253880
53.456810	2.316775
53.590512	2.383823
53.720416	2.453679
53.846638	2.526737
53.969202	2.600742
54.088394	2.673104
54.204458	2.743845
54.317680	2.809257
54.428424	2.866940
54.537080	2.917689
54.643936	2.964662
54.749180	3.006884
54.853006	3.045891
54.955562	3.081927
55.056950	3.115856
55.157258	3.148519
55.256546	3.180072
55.354822	3.213511
55.452038	3.248938
55.548142	3.288662
55.643042	3.331699
55.736676	3.378783
55.828972	3.427965
55.919936	3.480989
56.009476	3.535361
56.097688	3.588423
56.184620	3.641413
56.270340	3.690694
56.354964	3.735455
56.438632	3.774955
56.521468	3.812057
56.603538	3.844902
56.684928	3.875734
56.765698	3.903860
56.845900	3.930725
56.925556	3.957364
57.004688	3.982749
57.083294	4.010817
57.161338	4.039283
57.238808	4.071319
57.315634	4.105906
57.391788	4.144800
57.467208	4.184996
57.541898	4.228937
57.615788	4.273229
57.688940	4.316205
57.761370	4.360537
57.833086	4.402209
57.904154	4.439786
57.974658	4.472655
58.044668	4.503688
58.114218	4.531100
58.183358	4.556995
58.252128	4.580115
58.320554	4.602527
58.388650	4.624478
58.456430	4.645540
58.523884	4.669153
58.590990	4.693428
58.657724	4.721360
58.724056	4.750775
58.789998	4.779251
58.855590	4.800722
58.920980	4.813226
58.986262	4.812636
59.051674	4.796325
59.117386	4.769528
59.183554	4.730174
59.250304	4.683492
59.317778	4.630612
59.386050	4.573980
59.455176	4.516898
59.525220	4.455022
59.596244	4.392484
59.668312	4.327620
59.741466	4.261867
59.815784	4.194383
59.891274	4.129328
59.967964	4.064472
60.045866	4.001519
60.124980	3.940685
60.205304	3.882344
60.286804	3.826171
60.369500	3.773322
60.453324	3.721561
60.538352	3.668713
60.624624	3.616180
60.712210	3.560120
60.801252	3.498667
60.892012	3.427666
60.984764	3.350032
61.079728	3.268883
61.177122	3.184972
61.277174	3.098462
61.380110	3.008785
61.486208	2.916443
61.595792	2.821013
61.709150	2.725563
61.826596	2.627980
61.948486	2.530481
62.075134	2.433909
62.206880	2.338956
62.344010	2.245599
62.486952	2.154461
62.636066	2.062739
62.792180	1.967430
62.956404	1.866574
63.130486	1.753571
63.317312	1.623999
63.521568	1.472810
63.751776	1.290309
64.025588	1.061277
64.401234	0.747123
65.320974	0.218315
66.251662	0.604083
66.715638	0.861593
67.053002	1.048127
67.336808	1.193424
67.589536	1.309248
67.822116	1.403437
68.040526	1.481115
68.248362	1.547384
68.447602	1.609060
68.639298	1.669834
68.823988	1.733962
69.001558	1.805036
69.172072	1.881982
