#Creator: wheelEventBuffer
#Creation time: Thu Apr 11 09:51:51 2019
#Time	Angular velocity
#[s]	[rad/s]
0.536358	3.120498
0.624014	5.421025
0.676524	6.973259
0.718158	8.435164
0.754326	9.261225
0.788226	9.348865
0.821836	9.346640
0.855448	9.344972
0.889068	9.344972
0.922684	9.345528
0.956304	9.343304
0.989924	9.344972
1.023546	9.344416
1.057164	9.344972
1.090784	9.344416
1.124410	9.339416
1.158052	9.337750
1.191716	9.329431
1.225400	9.322787
1.259110	9.316152
1.292846	9.310078
1.326602	9.300707
1.360396	9.293003
1.394218	9.285313
1.428058	9.280924
1.461916	9.274896
1.495796	9.272158
1.529674	9.271064
1.563566	9.270517
1.597450	9.271611
1.631334	9.270517
1.665220	9.272706
1.699104	9.271611
1.732986	9.272158
1.766874	9.269969
1.800770	9.265049
1.834680	9.262863
1.868616	9.256313
1.902562	9.250862
1.936534	9.244329
1.970532	9.239435
2.004550	9.227494
2.038614	9.219912
2.072700	9.212341
2.106814	9.206942
2.140938	9.202627
2.175086	9.199393
2.209232	9.198315
2.243392	9.197777
2.277546	9.197777
2.311702	9.197238
2.345856	9.199393
2.380010	9.198854
2.414158	9.200470
2.448308	9.198854
2.482466	9.194008
2.516642	9.191318
2.550842	9.183795
2.585062	9.175748
2.619308	9.170927
2.653580	9.164506
2.687870	9.156493
2.722200	9.147428
2.756558	9.140508
2.790938	9.134661
2.825336	9.129352
2.859754	9.126700
2.894176	9.125639
2.928604	9.125639
2.963026	9.126700
2.997452	9.124579
3.031880	9.126700
3.066304	9.125639
3.100730	9.126170
3.135156	9.124579
3.169592	9.120871
3.204040	9.118223
3.238512	9.112405
3.272998	9.105010
3.307514	9.099208
3.342058	9.091835
3.376624	9.082373
3.411232	9.074502
3.445868	9.066122
3.480528	9.062461
3.515200	9.056191
3.549896	9.054625
3.584594	9.052016
3.619302	9.052016
3.654004	9.053059
3.688708	9.052016
3.723412	9.054103
3.758110	9.053581
3.792810	9.054625
3.827510	9.052538
3.862222	9.047845
3.896948	9.044198
3.931706	9.037434
3.966478	9.030160
4.001276	9.024972
4.036102	9.019789
4.070946	9.009443
4.105834	9.001698
4.140752	8.992937
4.175696	8.987792
4.210654	8.982652
4.245634	8.981111
4.280612	8.979571
4.315606	8.978544
4.350590	8.980084
4.385576	8.978031
4.420566	8.980084
4.455552	8.979571
4.490536	8.980598
4.525522	8.979058
4.560516	8.975466
4.595520	8.972903
4.630556	8.965221
4.665608	8.958063
4.700690	8.951937
4.735800	8.945309
4.770936	8.935133
4.806112	8.927515
4.841318	8.920418
4.876546	8.915355
4.911790	8.909792
4.947056	8.907266
4.982328	8.905246
5.017608	8.905246
5.052880	8.907266
5.088154	8.905246
5.123428	8.907266
5.158704	8.906256
5.193972	8.908276
5.229246	8.904741
5.264534	8.899696
5.299838	8.897679
5.335164	8.891132
5.370510	8.884092
5.405882	8.878568
5.441282	8.873052
5.476706	8.861539
5.512176	8.854046
5.547676	8.845072
5.583202	8.840592
5.618744	8.835122
5.654310	8.833135
5.689874	8.831645
5.725452	8.830652
5.761022	8.832141
5.796596	8.829659
5.832172	8.832638
5.867744	8.831645
5.903310	8.834128
5.938878	8.831645
5.974456	8.827674
6.010050	8.824203
6.045676	8.816278
6.081322	8.808862
6.116996	8.802938
6.152700	8.797022
6.188428	8.787180
6.224198	8.779813
6.259996	8.771478
6.295822	8.766583
6.331666	8.760716
6.367534	8.758273
6.403402	8.756809
6.439280	8.757297
6.475152	8.757785
6.511026	8.756320
6.546900	8.758273
6.582776	8.757297
6.618646	8.758273
6.654522	8.755832
6.690408	8.751930
6.726308	8.749492
6.762236	8.742674
6.798180	8.735382
6.834156	8.730041
6.870160	8.723254
6.906192	8.712126
6.942272	8.703919
6.978382	8.696210
7.014516	8.691879
7.050666	8.686111
7.086842	8.684670
7.123018	8.681790
7.159206	8.681790
7.195388	8.682750
7.231572	8.681790
7.267754	8.684190
7.303934	8.683230
7.340108	8.685151
7.376288	8.682750
7.412476	8.678433
7.448684	8.674599
7.484924	8.666462
7.521184	8.659774
7.557472	8.654525
7.593790	8.647855
7.630132	8.639293
7.666520	8.629801
7.702938	8.622222
7.739388	8.616073
7.775854	8.611350
7.812346	8.608518
7.848836	8.608047
7.885336	8.607575
7.921832	8.608047
7.958330	8.606632
7.994830	8.608047
8.031328	8.608047
8.067822	8.608518
8.104318	8.607575
8.140824	8.603332
8.177346	8.600506
8.213894	8.593918
8.250464	8.586402
8.287068	8.578899
8.323704	8.572344
8.360370	8.562064
8.397082	8.554138
8.433822	8.547156
8.470590	8.542043
8.507376	8.536009
8.544188	8.533690
8.581000	8.531836
8.617828	8.531836
8.654642	8.533226
8.691462	8.531836
8.728278	8.534617
8.765094	8.533690
8.801904	8.534617
8.838722	8.531836
8.875552	8.526742
8.912402	8.523965
8.949278	8.517033
8.986178	8.510111
9.023104	8.505043
9.060060	8.498141
9.097046	8.488497
9.134078	8.479332
9.171146	8.471101
9.208244	8.465623
9.245360	8.460151
9.282502	8.458329
9.319642	8.456508
9.356798	8.456508
9.393942	8.457418
9.431092	8.455597
9.468242	8.457874
9.505388	8.457418
9.542530	8.459240
9.579674	8.456963
9.616830	8.452867
9.654002	8.449684
9.691208	8.441057
9.728438	8.434259
9.765700	8.427019
9.802998	8.421146
9.840322	8.411225
9.877692	8.402676
9.915096	8.395940
9.952528	8.389662
9.989980	8.384288
10.027460	8.381604
10.064942	8.379815
10.102432	8.380709
10.139916	8.381156
10.177400	8.380262
10.214886	8.382051
10.252372	8.380262
10.289856	8.381604
10.327346	8.378921
10.364846	8.374900
10.402362	8.372222
10.439910	8.365980
10.477476	8.357967
10.515076	8.351746
10.552712	8.345534
10.590376	8.334021
10.628096	8.325187
10.665848	8.317693
10.703628	8.313291
10.741426	8.307575
10.779250	8.304940
10.817078	8.303184
10.854920	8.302306
10.892754	8.304062
10.930588	8.302306
10.968424	8.304940
11.006254	8.304501
11.044080	8.306257
11.081908	8.304501
11.119748	8.298797
11.157612	8.295291
11.195510	8.287413
11.233432	8.279551
11.271386	8.274317
11.309376	8.267349
11.347392	8.257787
11.385460	8.248681
11.423564	8.241324
11.461696	8.235275
11.499852	8.230097
11.538034	8.227080
11.576218	8.225787
11.614414	8.225787
11.652600	8.227080
11.690790	8.225356
11.728982	8.226649
11.767174	8.225787
11.805362	8.227080
11.843554	8.225356
11.881754	8.221052
11.919976	8.218041
11.958228	8.210738
11.996504	8.203449
12.034816	8.196599
12.073164	8.189762
12.111544	8.178675
12.149978	8.170592
12.188446	8.162949
12.226944	8.157862
12.265462	8.152358
12.304008	8.149397
12.342558	8.147284
12.381122	8.147284
12.419676	8.148552
12.458232	8.147706
12.496784	8.149820
12.535338	8.149397
12.573884	8.150243
12.612438	8.147706
12.651006	8.142638
12.689594	8.139263
12.728220	8.131258
12.766866	8.124949
12.805548	8.118650
12.844262	8.112779
12.883006	8.101900
12.921808	8.092717
12.960646	8.084803
12.999520	8.078566
13.038412	8.073998
13.077332	8.071094
13.116254	8.070265
13.155188	8.069436
13.194116	8.070265
13.233046	8.069021
13.271976	8.071094
13.310902	8.070265
13.349828	8.071924
13.388752	8.070265
13.427690	8.065706
13.466646	8.062395
13.505640	8.054953
13.544658	8.046288
13.583718	8.039699
13.622814	8.032709
13.661944	8.022863
13.701126	8.014267
13.740344	8.006097
13.779598	8.001204
13.818870	7.995502
13.858174	7.992248
13.897478	7.991028
13.936798	7.990621
13.976106	7.992654
14.015416	7.990621
14.054728	7.993061
14.094036	7.992248
14.133344	7.992248
14.172658	7.990215
14.211986	7.985340
14.251334	7.982094
14.290716	7.975610
14.330122	7.968327
14.369562	7.961461
14.409044	7.955413
14.448558	7.943344
14.488134	7.934116
14.527748	7.926909
14.567392	7.921313
14.607064	7.915325
14.646760	7.913730
14.686458	7.911737
14.726172	7.910940
14.765878	7.912136
14.805588	7.910542
14.845294	7.913332
14.884998	7.913332
14.924694	7.914927
14.964392	7.912534
15.004106	7.908152
15.043842	7.903775
15.083618	7.895830
15.123424	7.887504
15.163268	7.881172
15.203152	7.874455
15.243068	7.864599
15.283038	7.856339
15.323048	7.847703
15.363094	7.841827
15.403164	7.836741
15.443262	7.833614
15.483366	7.832442
15.523480	7.832052
15.563584	7.834005
15.603690	7.832442
15.643796	7.834005
15.683904	7.832833
15.724010	7.834005
15.764116	7.831661
15.804240	7.827759
15.844380	7.824639
15.884558	7.817630
15.924760	7.809468
15.965006	7.802485
16.005294	7.795128
16.045620	7.783541
16.086006	7.775450
16.126430	7.767760
16.166888	7.762002
16.207372	7.756636
16.247882	7.753956
16.288400	7.751660
16.328930	7.752042
16.369452	7.753190
16.409974	7.752042
16.450494	7.754338
16.491010	7.754338
16.531524	7.755104
16.572040	7.752425
16.612578	7.747072
16.653138	7.743253
16.693738	7.735627
16.734366	7.728015
16.775034	7.721937
16.815742	7.714731
16.856484	7.704514
16.897290	7.695078
16.938136	7.687170
16.979020	7.681156
17.019928	7.675526
17.060868	7.673276
17.101808	7.672152
17.142760	7.672152
17.183704	7.672901
17.224652	7.671028
17.265600	7.673276
17.306546	7.672526
17.347488	7.674401
17.388430	7.672152
17.429388	7.668032
17.470364	7.665038
17.511384	7.656445
17.552432	7.648616
17.593526	7.640803
17.634668	7.633377
17.675844	7.623005
17.717082	7.614875
17.758362	7.606025
17.799680	7.601240
17.841018	7.595360
17.882392	7.592423
17.923770	7.590588
17.965162	7.590588
18.006542	7.592423
18.047924	7.590955
18.089306	7.592423
18.130686	7.592790
18.172064	7.592423
18.213446	7.590588
18.254848	7.585090
18.296276	7.581429
18.337740	7.574483
18.379232	7.567185
18.420768	7.559901
18.462348	7.552995
18.503966	7.542115
18.545652	7.532350
18.587380	7.524412
18.629148	7.518650
18.670942	7.512896
18.712768	7.510382
18.754596	7.509305
18.796440	7.507869
18.838278	7.508946
18.880118	7.508228
18.921954	7.510382
18.963786	7.510741
19.005612	7.511459
19.047442	7.509305
19.089290	7.504641
19.131162	7.501057
19.173078	7.491755
19.215030	7.483903
19.257028	7.476778
19.299070	7.469667
19.341150	7.459380
19.383298	7.450182
19.425486	7.442416
19.467716	7.436074
19.509976	7.430095
19.552266	7.427987
19.594562	7.425529
19.636872	7.426231
19.679170	7.427284
19.721470	7.426231
19.763770	7.428338
19.806068	7.426933
19.848366	7.427635
19.890670	7.425178
19.932990	7.420968
19.975332	7.417464
20.017718	7.410116
20.060130	7.402433
20.102592	7.395463
20.145100	7.386769
20.187656	7.376016
20.230278	7.366676
20.272946	7.358739
20.315656	7.352883
20.358390	7.347723
20.401160	7.344288
20.443934	7.342572
20.486726	7.342572
20.529504	7.343601
20.572286	7.342915
20.615064	7.345318
20.657840	7.344631
20.700608	7.346005
20.743384	7.343258
20.786178	7.338798
20.829000	7.333659
20.871870	7.325450
20.914774	7.317942
20.957724	7.311130
21.000720	7.303651
21.043760	7.293139
21.086866	7.284346
21.130020	7.274900
21.173222	7.269176
21.216450	7.263462
21.259712	7.260776
21.302982	7.259099
21.346262	7.259434
21.389532	7.260105
21.432810	7.258763
21.476084	7.260441
21.519358	7.260105
21.562628	7.260776
21.605900	7.259434
21.649190	7.254740
21.692502	7.251391
21.735860	7.243366
21.779252	7.235025
21.822700	7.226704
21.866200	7.219065
21.909742	7.208133
21.953358	7.199213
21.997022	7.190645
22.040728	7.185382
22.084462	7.179470
22.128230	7.176846
22.172008	7.174224
22.215798	7.174552
22.259580	7.176190
22.303360	7.175207
22.347138	7.177830
22.390910	7.177174
22.434682	7.177502
22.478458	7.175207
22.522258	7.169967
22.566086	7.165715
22.609958	7.158530
22.653866	7.150384
22.697822	7.143230
22.741832	7.135767
22.785886	7.124439
22.830016	7.114758
22.874200	7.105747
22.918428	7.100286
22.962686	7.094194
23.006980	7.091951
23.051280	7.089711
23.095596	7.089711
23.139904	7.090031
23.184214	7.089711
23.228520	7.091951
23.272822	7.091631
23.317118	7.092912
23.361416	7.091311
23.405734	7.085873
23.450082	7.081720
23.494480	7.073110
23.538922	7.063886
23.583418	7.056270
23.627970	7.048355
23.672568	7.038249
23.717238	7.028800
23.761960	7.020319
23.806730	7.014362
23.851530	7.008416
23.896368	7.005291
23.941214	7.003417
23.986076	7.003729
24.030922	7.005916
24.075768	7.004354
24.120614	7.006541
24.165458	7.005916
24.210300	7.005916
24.255148	7.004041
24.300018	6.998424
24.344916	6.995619
24.389862	6.987217
24.434840	6.980076
24.479878	6.971712
24.524970	6.963676
24.570116	6.951964
24.615340	6.942439
24.660620	6.933859
24.705946	6.928048
24.751304	6.922247
24.796702	6.919198
24.842104	6.917674
24.887524	6.917370
24.932934	6.918284
24.978346	6.917674
25.023750	6.920417
25.069152	6.920112
25.114544	6.921637
25.159942	6.918588
25.205368	6.913412
25.250822	6.909155
25.296332	6.900050
25.341886	6.891573
25.387496	6.883721
25.433164	6.876489
25.478880	6.865369
25.524678	6.855780
25.570528	6.847114
25.616432	6.840852
25.662368	6.834898
25.708346	6.831926
25.754328	6.830737
25.800324	6.830737
25.846308	6.831926
25.892296	6.831034
25.938282	6.832223
25.984268	6.832223
26.030248	6.832520
26.076234	6.831034
26.122238	6.826285
26.168274	6.822134
26.214360	6.814143
26.260490	6.805582
26.306682	6.796748
26.352938	6.788230
26.399248	6.777393
26.445640	6.767174
26.492090	6.759602
26.538588	6.752918
26.585124	6.747117
26.631700	6.743931
26.678284	6.742194
26.724886	6.741904
26.771472	6.743931
26.818060	6.742773
26.864642	6.745668
26.911220	6.745379
26.957792	6.745668
27.004376	6.743062
27.050982	6.737278
27.097628	6.732946
27.144328	6.724012
27.191072	6.716249
27.237874	6.708791
27.284736	6.700778
27.331654	6.689363
27.378656	6.679408
27.425720	6.670615
27.472840	6.663823
27.519996	6.658456
27.567190	6.655635
27.614394	6.653661
27.661614	6.653661
27.708824	6.654507
27.756036	6.653661
27.803244	6.655917
27.850450	6.655635
27.897646	6.657045
27.944848	6.654789
27.992070	6.650281
28.039324	6.645779
28.086640	6.637074
28.134000	6.628112
28.181428	6.619454
28.228924	6.611374
28.276474	6.600262
28.324112	6.590293
28.371812	6.582008
28.419564	6.575671
28.467356	6.569346
28.515192	6.566325
28.563034	6.564953
28.610894	6.564679
28.658738	6.566874
28.706580	6.566325
28.754420	6.567973
28.802258	6.567149
28.850094	6.567698
28.897938	6.564953
28.945810	6.559744
28.993716	6.555638
29.041678	6.547713
29.089682	6.539807
29.137750	6.531378
29.185890	6.522428
29.234092	6.511073
29.282384	6.500564
29.330744	6.491430
29.379164	6.485266
29.427618	6.479648
29.476120	6.476175
29.524628	6.474574
29.573156	6.474307
29.621674	6.475374
29.670188	6.475107
29.718698	6.477511
29.767202	6.477511
29.815700	6.478312
29.864202	6.476175
29.912732	6.470840
29.961298	6.466311
30.009930	6.456743
30.058614	6.447467
30.107370	6.439537
30.156192	6.431364
30.205078	6.419799
30.254054	6.410367
30.303096	6.401485
30.352196	6.394709
30.401340	6.388727
30.450528	6.385870
30.499724	6.384313
30.548936	6.384313
30.598136	6.385351
30.647338	6.384832
30.696536	6.386649
30.745734	6.385610
30.794926	6.386909
30.844126	6.384313
30.893350	6.379905
30.942606	6.375503
30.991928	6.366975
31.041300	6.358212
31.090742	6.349474
31.140264	6.339992
31.189856	6.327987
31.239542	6.318569
31.289296	6.309686
31.339112	6.303103
31.388972	6.296786
31.438878	6.293759
31.488796	6.291742
31.538734	6.291238
31.588658	6.293255
31.638578	6.293002
31.688492	6.295272
31.738400	6.295272
31.788302	6.296282
31.838210	6.293002
31.888156	6.287461
31.938140	6.282180
31.988196	6.273148
32.038302	6.264892
32.088482	6.256408
32.138738	6.247698
32.189060	6.236536
32.239482	6.225660
