#Creator: wheelEventBuffer
#Creation time: Thu Apr 11 09:51:51 2019
#Time	Angular velocity
#[s]	[rad/s]
2.199946	0.315304
3.072638	0.487498
3.655774	0.628123
4.118458	0.755754
4.508460	0.874321
4.849578	0.983389
5.155804	1.080134
5.436526	1.166959
5.697816	1.244925
5.944208	1.311839
6.179382	1.365577
6.406220	1.407852
6.627018	1.441031
6.843256	1.465856
7.056026	1.488540
7.265910	1.506427
7.473390	1.521854
7.678486	1.541099
7.880740	1.564164
8.079662	1.593552
8.274768	1.626892
8.465518	1.666150
8.651516	1.711648
8.832388	1.762702
9.008074	1.815047
9.178852	1.866574
9.345054	1.915278
9.507126	1.962956
9.665398	2.008563
9.820358	2.048883
9.972546	2.082124
10.122488	2.109867
10.270656	2.132380
10.417412	2.149332
10.563012	2.166675
10.707476	2.182571
10.850970	2.197041
10.993488	2.211548
11.134978	2.228080
11.275288	2.248975
11.414224	2.273222
11.551534	2.301904
11.687046	2.334125
11.820572	2.371049
11.951972	2.410565
12.081238	2.451420
12.208348	2.491864
12.333462	2.531338
12.456686	2.568507
12.578268	2.601518
12.698448	2.628464
12.817496	2.650820
12.935642	2.668654
13.053086	2.681363
13.169976	2.694472
13.286306	2.706729
13.402178	2.716466
13.517564	2.728403
13.632406	2.741977
13.746608	2.758784
13.860082	2.778204
13.972666	2.801891
14.084238	2.828938
14.194662	2.860466
14.303858	2.893450
14.411828	2.927095
14.518558	2.959969
14.624142	2.991708
14.728638	3.021518
14.832180	3.048433
14.934886	3.070720
15.036884	3.089990
15.138306	3.106366
15.239256	3.117587
15.339840	3.129825
15.440040	3.140776
15.539952	3.148835
15.639568	3.158332
15.738856	3.168781
15.837764	3.182907
15.936218	3.198982
16.034102	3.219043
16.131348	3.241629
16.227852	3.268475
16.323544	3.297083
16.418414	3.326760
16.512426	3.356402
16.605634	3.385337
16.698062	3.412697
16.789808	3.437417
16.880952	3.457695
16.971600	3.474675
17.061854	3.488023
17.151800	3.497264
17.241502	3.507573
17.330940	3.517548
17.420176	3.524494
17.509202	3.532896
17.598000	3.542138
17.686524	3.554481
17.774726	3.569180
17.862504	3.588013
17.949806	3.608454
18.036566	3.633243
18.122726	3.658545
18.208304	3.684720
18.293262	3.710309
18.377648	3.736077
18.461458	3.760765
18.544754	3.783593
18.627598	3.802276
18.710056	3.818451
18.792188	3.832332
18.874076	3.840766
18.955776	3.850180
19.037276	3.859071
19.118630	3.865148
19.199814	3.873632
19.280814	3.882728
19.361596	3.894375
19.442134	3.907356
19.522350	3.924440
19.602208	3.943158
19.681640	3.966157
19.760612	3.989729
19.839118	4.014610
19.917124	4.039595
19.994666	4.064051
20.071754	4.086465
20.148460	4.106442
20.224826	4.122392
20.300918	4.135742
20.376780	4.147427
20.452460	4.154667
20.527994	4.163697
20.603362	4.172767
20.678608	4.178650
20.753720	4.186223
20.828688	4.193935
20.903492	4.204712
20.978102	4.216790
21.052456	4.232811
21.126524	4.249760
21.200260	4.270905
21.273630	4.292145
21.346638	4.315137
21.419244	4.337778
21.491486	4.360537
21.563352	4.381824
21.634900	4.401223
21.706164	4.417064
21.777186	4.430394
21.848012	4.441795
21.918688	4.447958
21.989260	4.455654
22.059702	4.463631
22.130054	4.468583
22.200300	4.475586
22.270434	4.482610
22.340438	4.491711
22.410300	4.502526
22.479954	4.517028
22.549380	4.532538
22.618536	4.552637
22.687384	4.572915
22.755934	4.594046
22.824158	4.614831
22.892088	4.635395
22.959726	4.653798
23.027116	4.670958
23.094284	4.684609
23.161264	4.696655
23.228078	4.708058
23.294760	4.713992
23.361352	4.721927
23.427830	4.729320
23.494240	4.733310
23.560568	4.739022
23.626816	4.744605
23.692962	4.753219
23.758990	4.763164
23.824846	4.776925
23.890510	4.791204
23.955950	4.809689
24.021138	4.828168
24.086076	4.848586
24.150736	4.867969
24.215142	4.888269
24.279286	4.906439
24.343216	4.923200
24.406950	4.936662
24.470522	4.947546
24.533966	4.956757
24.597316	4.961141
24.660600	4.967259
24.723786	4.976071
24.786908	4.979857
24.849952	4.985705
24.912926	4.991409
24.975804	4.999670
25.038588	5.009077
25.101218	5.021727
25.163688	5.036056
25.225956	5.053880
25.288008	5.071175
25.349854	5.089578
25.411464	5.107949
25.472862	5.125951
25.534044	5.143070
25.595040	5.159286
25.655864	5.171857
25.716544	5.183462
25.777096	5.193574
25.837556	5.198558
25.897952	5.204932
25.958272	5.211321
26.018546	5.214262
26.078766	5.219286
26.138922	5.224320
26.199006	5.232325
26.259000	5.240879
26.318868	5.253499
26.378596	5.266004
26.438154	5.283007
26.497522	5.299583
26.556708	5.317703
26.615678	5.336129
26.674456	5.354318
26.733038	5.370611
26.791458	5.385895
26.849734	5.397369
26.907886	5.407402
26.965942	5.416166
27.023920	5.420277
27.081846	5.427019
27.139694	5.434153
27.197496	5.437351
27.255248	5.442060
27.312944	5.447156
27.370576	5.454154
27.428136	5.462309
27.485580	5.474684
27.542896	5.487306
27.600060	5.503649
27.657058	5.519312
27.713898	5.536431
27.770550	5.552872
27.827038	5.570792
27.883348	5.586841
27.939510	5.601984
27.995538	5.613596
28.051448	5.624853
28.107260	5.633931
28.163002	5.637368
28.218702	5.643444
28.274340	5.648924
28.329944	5.652176
28.385496	5.658081
28.440988	5.663589
28.496418	5.670950
28.551796	5.676483
28.607110	5.682849
28.662386	5.685112
28.717642	5.686141
28.772914	5.682232
28.828250	5.674842
28.883666	5.663180
28.939216	5.648518
28.994918	5.631305
29.050800	5.613395
29.106876	5.592610
29.163162	5.570792
29.219670	5.548752
29.276428	5.521252
29.333462	5.495561
29.390764	5.469727
29.448364	5.439799
29.506264	5.412060
29.564456	5.384234
29.622938	5.358702
29.681706	5.333955
29.740710	5.313566
29.799948	5.292975
29.859392	5.276440
29.919024	5.259480
29.978852	5.243678
30.038846	5.228494
30.099022	5.213223
30.159382	5.195807
30.219962	5.177482
30.280774	5.155730
30.341852	5.132315
30.403220	5.106786
30.464918	5.076911
30.526976	5.048357
30.589374	5.020764
30.652152	4.989031
30.715310	4.959574
30.778840	4.929999
30.842738	4.902151
30.907002	4.875675
30.971580	4.853080
31.036460	4.830990
31.101604	4.813226
31.166996	4.795153
31.232634	4.778233
31.298498	4.760566
31.364616	4.743172
31.430984	4.723489
31.497646	4.703265
31.564620	4.679446
31.631942	4.654211
31.699644	4.627338
31.767774	4.594987
31.836382	4.564013
31.905452	4.532669
31.975044	4.497499
32.045154	4.464138
32.115782	4.431519
32.186910	4.401223
32.258534	4.372067
32.330596	4.346300
32.403080	4.321548
32.475944	4.301077
32.549152	4.280916
32.622704	4.262445
32.696564	4.243904
32.770758	4.225183
32.845296	4.204262
32.920240	4.181097
32.995634	4.154117
33.071538	4.124449
33.148016	4.092640
33.225120	4.055971
33.302916	4.021187
33.381384	3.986388
33.460594	3.947518
33.540558	3.910080
33.621286	3.872677
33.702764	3.838138
33.784980	3.804671
33.867862	3.775499
33.951374	3.747754
34.035466	3.723501
34.120098	3.700258
34.205266	3.678077
34.290936	3.655480
34.377150	3.633075
34.463916	3.608537
34.551316	3.581795
34.639422	3.551106
34.728324	3.517627
34.818128	3.480526
34.908942	3.438470
35.000880	3.396830
35.093962	3.353894
35.188294	3.308263
35.283904	3.263857
35.380816	3.219439
35.479028	3.177756
35.578522	3.137827
35.679216	3.101643
35.781044	3.068081
35.883918	3.039114
35.987746	3.011785
36.092526	2.985737
36.198220	2.958965
36.304916	2.930809
36.412686	2.900021
36.521706	2.865162
36.632148	2.825834
36.744214	2.782633
36.858116	2.735578
36.974090	2.683241
37.092366	2.630841
37.213076	2.575963
37.336504	2.516979
37.462846	2.457710
37.592248	2.398565
37.724780	2.342514
37.860454	2.289390
37.999184	2.240027
38.140902	2.193513
38.285552	2.150538
38.433024	2.109697
38.583350	2.071280
38.736498	2.032025
38.892712	1.991501
39.052316	1.947164
39.215896	1.897097
39.384242	1.839275
39.558418	1.772848
39.739864	1.696214
39.930300	1.609126
40.131762	1.516901
40.346592	1.416663
40.578350	1.306102
40.831754	1.186868
41.113410	1.059716
41.433186	0.925337
41.808290	0.778562
42.276880	0.609838
43.006164	0.377737
44.479778	0.148562
45.975974	0.250605
47.071960	0.406229
47.771396	0.526091
48.323154	0.634840
48.787080	0.735767
49.190304	0.834411
49.548678	0.930848
49.872496	1.019825
50.170058	1.099820
50.447478	1.171327
50.708474	1.240119
50.956136	1.302377
51.192958	1.355139
51.421396	1.398974
51.643290	1.435461
51.860104	1.464639
52.072840	1.489570
52.282070	1.513860
52.488066	1.537118
52.690794	1.561661
52.890118	1.589939
53.085664	1.622925
53.277102	1.659076
53.464262	1.698654
53.646950	1.740707
53.825088	1.786498
53.998660	1.834464
54.167770	1.882930
54.332718	1.927902
54.493972	1.970145
54.651764	2.012551
54.806468	2.050835
54.958476	2.084418
55.108222	2.113245
55.256088	2.137545
55.402390	2.157924
55.547388	2.175829
55.691204	2.193053
55.833962	2.209184
55.975628	2.225554
56.116182	2.243931
56.255468	2.266498
56.393270	2.292297
56.529450	2.321740
56.663834	2.353359
56.796352	2.387736
56.926960	2.423171
57.055660	2.460097
57.182488	2.494515
57.307616	2.527794
57.431066	2.562097
57.552994	2.592458
57.673586	2.618998
57.793054	2.641948
57.911586	2.660247
58.029346	2.675700
58.146468	2.689213
58.262982	2.702957
58.378944	2.716231
58.494294	2.730300
58.609026	2.745427
58.723060	2.764124
58.836288	2.784359
58.948634	2.808404
59.059978	2.834094
59.170244	2.863229
59.279392	2.893504
59.387398	2.925024
59.494288	2.953568
59.600164	2.981430
59.705032	3.010169
59.808976	3.035473
59.912096	3.058523
60.014502	3.078423
60.116302	3.094799
60.217590	3.108703
60.318466	3.120436
60.418946	3.132071
60.519090	3.143164
60.618844	3.154843
60.718214	3.167503
60.817136	3.183745
60.915520	3.201786
61.013318	3.223270
61.110432	3.245916
61.206838	3.270857
61.302496	3.297360
61.397386	3.325211
61.491508	3.350460
61.584942	3.374936
61.677676	3.400360
61.769788	3.421991
61.861340	3.441484
61.952416	3.458609
62.043084	3.472447
62.133392	3.484928
62.223408	3.495474
62.313140	3.506085
62.402626	3.516210
62.491834	3.526868
62.580766	3.537591
62.669388	3.551909
62.757630	3.567640
62.845458	3.586702
62.932788	3.607212
63.019594	3.630220
63.105856	3.653694
63.191566	3.678249
63.276718	3.700258
63.361378	3.721913
63.445514	3.745699
63.529166	3.765904
63.612394	3.784322
63.695244	3.800620
63.777780	3.813353
63.860048	3.824122
63.942110	3.832706
64.023974	3.841705
64.105666	3.850463
64.187148	3.860304
64.268414	3.870482
64.349438	3.884072
64.430162	3.898628
64.510570	3.916124
64.590594	3.934663
64.670218	3.955570
64.749422	3.977102
64.828190	4.000806
64.906506	4.021908
64.984426	4.042297
65.061934	4.064051
65.139078	4.081475
65.215898	4.097872
65.292438	4.112355
65.368730	4.124341
65.444804	4.134871
65.520732	4.141522
65.596556	4.145238
65.672388	4.143051
65.748306	4.134545
65.824442	4.119041
65.900902	4.100011
65.977760	4.075862
66.055090	4.050636
66.132900	4.023968
66.211212	3.998667
66.290008	3.974989
66.369270	3.953081
66.448984	3.928857
66.529200	3.904443
66.609898	3.881672
66.691124	3.854526
66.772944	3.825333
66.855422	3.794286
66.938620	3.759415
67.022602	3.722354
67.107448	3.683770
67.193176	3.645216
67.279848	3.605638
67.367448	3.566911
67.456002	3.528135
67.545504	3.492211
67.635912	3.457162
67.727202	3.425871
67.819304	3.395582
67.912188	3.368133
68.005836	3.341338
68.100230	3.316015
68.195382	3.287560
68.291374	3.258576
68.388196	3.230828
68.485924	3.199373
68.584656	3.165588
68.684502	3.128952
68.785600	3.087864
68.888080	3.044061
68.992100	2.997646
69.097742	2.950406
69.205142	2.901628
69.314344	2.852622
69.425420	2.804192
69.538368	2.758978
69.653132	2.715573
69.769688	2.675745
69.887950	2.637157
70.007892	2.600958
70.129498	2.566032
70.252768	2.532195
70.377742	2.496022
70.504590	2.458441
70.633366	2.421079
70.764296	2.379742
70.897658	2.333744
71.033842	2.282736
71.173322	2.225271
71.316568	2.163304
71.464104	2.098172
71.616372	2.030712
71.773940	1.960457
71.937318	1.888181
72.107104	1.815152
72.283758	1.744012
72.467698	1.674177
72.659372	1.606624
72.859134	1.540616
73.067412	1.477910
73.284754	1.415833
73.512094	1.352072
73.751030	1.282618
74.004074	1.206662
74.274148	1.126431
74.566310	1.035449
74.889778	0.925157
75.263824	0.785712
75.743928	0.593253
76.658332	0.284796
77.603540	0.251969
78.624760	0.488394
79.211202	0.639161
79.674914	0.738489
80.084290	0.808743
80.462966	0.857745
80.822280	0.893696
81.167450	0.928323
81.500604	0.959622
81.823622	0.987066
82.137506	1.014871
82.442064	1.047232
82.736310	1.087719
83.019124	1.134518
83.289666	1.188593
83.547458	1.249927
83.792460	1.317208
84.025170	1.386086
84.246780	1.453539
84.458536	1.517047
84.661822	1.577041
84.857732	1.632929
85.047446	1.682732
85.232052	1.723971
85.412630	1.757967
85.590110	1.784550
85.765196	1.804663
85.938384	1.824195
86.109850	1.840870
86.279906	1.854585
86.448584	1.869907
86.615726	1.888226
86.781062	1.910991
86.944304	1.937748
87.105078	1.969453
87.263068	2.006715
87.417964	2.049551
87.569570	2.095066
87.717930	2.141654
87.863112	2.187068
88.005398	2.230484
88.145036	2.270429
88.282410	2.305722
88.417876	2.334507
88.551808	2.358305
88.684528	2.377221
88.816286	2.391590
88.947246	2.406650
89.077410	2.420669
89.206930	2.431460
89.335804	2.443488
89.463978	2.457595
89.591310	2.475761
89.717656	2.497133
89.842790	2.523084
89.966566	2.552563
90.088826	2.586269
90.209466	2.621664
90.328492	2.658402
90.445870	2.694611
90.561712	2.730158
90.676086	2.763929
90.789166	2.794315
90.901126	2.819595
91.012150	2.840705
91.122446	2.857396
91.232174	2.868825
91.341462	2.880821
91.450306	2.891906
91.558780	2.900931
91.666852	2.912388
91.774458	2.925841
91.881546	2.941181
91.988136	2.954735
92.094266	2.966341
92.200086	2.972572
92.305764	2.974430
92.411512	2.968808
92.517616	2.955625
92.624314	2.934642
92.731902	2.907106
92.840588	2.874810
92.950574	2.839421
93.062018	2.800393
93.175094	2.757767
93.290032	2.711074
93.407088	2.657952
93.526550	2.603674
93.648590	2.546480
93.773498	2.486027
93.901442	2.426203
94.032546	2.366940
94.166868	2.311082
94.304434	2.257345
94.445184	2.207074
94.589074	2.159645
94.735994	2.116834
94.885838	2.076345
95.038602	2.037693
95.194284	1.998799
95.353110	1.958672
95.515448	1.914041
95.681958	1.862788
95.853560	1.803150
96.031468	1.733790
96.217292	1.654027
96.413000	1.563293
96.620854	1.467102
96.843542	1.364048
97.085152	1.249510
97.351664	1.124069
97.651982	0.987804
98.000846	0.840295
98.429832	0.669915
99.057462	0.441187
100.629786	0.129660
102.234446	0.296615
103.164874	0.452052
103.796778	0.575541
104.302828	0.687116
104.731624	0.794483
105.106594	0.895260
105.442398	0.987221
105.749242	1.069202
106.034172	1.142580
106.301394	1.213167
106.554228	1.277506
106.795434	1.332222
107.027598	1.377783
107.252742	1.415923
107.472416	1.446632
107.687730	1.472424
107.899392	1.496781
108.107778	1.519292
108.312946	1.542719
108.514772	1.569650
108.712820	1.602347
108.906668	1.638756
109.096086	1.678990
109.280874	1.721421
109.460994	1.767104
109.636454	1.814817
109.807348	1.863628
109.973904	1.910201
110.136574	1.954189
110.295608	1.997655
110.451440	2.036398
110.604520	2.070024
110.755308	2.098761
110.904170	2.123329
111.051438	2.144227
111.197488	2.159526
111.342798	2.166765
111.488078	2.161815
111.634094	2.144285
111.781700	2.115180
111.931674	2.077361
112.084690	2.031263
112.241430	1.980303
112.402364	1.925585
112.567866	1.871667
112.738070	1.820474
112.913120	1.770909
113.093304	1.718295
113.279320	1.662306
113.471748	1.605179
113.671676	1.541977
113.880718	1.469710
114.101306	1.386674
114.337016	1.289790
114.593158	1.177244
114.877712	1.049205
115.204366	0.902083
115.603762	0.721220
116.206528	0.459669
117.365660	0.186918
118.532740	0.358007
119.303716	0.570135
119.806774	0.721820
120.214084	0.845451
120.567168	0.950207
120.884992	1.038550
121.178680	1.109876
121.455516	1.165763
121.720198	1.212081
121.976098	1.247277
122.225516	1.273209
122.470110	1.297043
122.710374	1.318302
122.946814	1.339618
123.179230	1.363195
123.407204	1.391921
123.630394	1.423867
123.849050	1.452128
124.064054	1.472727
124.276796	1.483297
124.488718	1.484095
124.701414	1.473045
124.916872	1.447912
125.137436	1.405924
125.366054	1.348358
125.605948	1.277527
125.860910	1.195094
126.136290	1.098982
126.441064	0.981827
126.793860	0.833004
127.244224	0.631456
128.233104	0.275475
129.115614	0.233704
130.257966	0.472064
130.859628	0.623399
131.330592	0.737207
131.736876	0.824461
132.104634	0.893122
132.446398	0.951145
132.769682	0.997984
133.080208	1.030274
133.384012	1.043462
133.687480	1.033235
133.997648	0.999361
134.323446	0.939753
134.678082	0.849221
135.084748	0.724140
135.601156	0.552385
136.844016	0.221930
137.993312	0.167210
139.574386	0.338849
140.414896	0.447681
141.077076	0.520731
141.666916	0.555975
142.233458	0.559223
142.814048	0.533394
143.477780	0.447893
144.960970	0.190227
146.206604	0.153145
148.092790	0.263200
