#Creator: wheelEventBuffer
#Creation time: Thu Apr 11 09:51:51 2019
#Time	Angular velocity
#[s]	[rad/s]
0.680852	1.084639
0.936722	1.692523
1.106960	2.111768
1.246448	2.458633
1.367850	2.760093
1.476962	3.030144
1.576982	3.275905
1.669986	3.500304
1.757376	3.705495
1.840164	3.896887
1.919080	4.075967
1.994686	4.242529
2.067418	4.404184
2.137558	4.560303
2.205394	4.708904
2.271128	4.854730
2.334928	4.997443
2.396934	5.139704
2.457274	5.278568
2.516038	5.417099
2.573336	5.552675
2.629242	5.689436
2.683836	5.822724
2.737216	5.953143
2.789436	6.081287
2.840594	6.204512
2.890750	6.324930
2.939986	6.440593
2.988362	6.551263
3.035930	6.659303
3.082744	6.765716
3.128848	6.863569
3.174298	6.963058
3.219102	7.061981
3.263310	7.153966
3.306940	7.248045
3.350008	7.341199
3.392530	7.435722
3.434520	7.530184
3.475976	7.626706
3.516922	7.720039
3.557360	7.818019
3.597308	7.911737
3.636786	8.006097
3.675798	8.100229
3.714366	8.193179
3.752502	8.282170
3.790238	8.370884
3.827590	8.453777
3.864574	8.536009
3.901210	8.616073
3.937514	8.690436
3.973508	8.767072
4.009184	8.845072
4.044566	8.916367
4.079652	8.990878
4.114454	9.062984
4.148976	9.137849
4.183220	9.211801
4.217180	9.289706
4.250864	9.365029
4.284266	9.444990
4.317394	9.521709
4.350262	9.597925
4.382864	9.673583
4.415214	9.750443
4.447312	9.823002
4.479178	9.897274
4.510816	9.965085
4.542234	10.033832
4.573436	10.103533
4.604438	10.164335
4.635248	10.229202
4.665864	10.293554
4.696302	10.351211
4.726562	10.412969
4.756640	10.475467
4.786540	10.538014
4.816266	10.600596
4.845810	10.666823
4.875174	10.730949
4.904358	10.799562
4.933360	10.863045
4.962198	10.929560
4.990850	10.996124
5.019336	11.062725
5.047652	11.126196
5.075810	11.189602
5.103816	11.248094
5.131674	11.306387
5.159388	11.366932
5.186962	11.417330
5.214410	11.475718
5.241716	11.533013
5.268900	11.584044
5.295958	11.637252
5.322890	11.690952
5.349700	11.744272
5.376392	11.797194
5.402954	11.856856
5.429388	11.913510
5.455690	11.974358
5.481862	12.032143
5.507914	12.088628
5.533838	12.146585
5.559642	12.205100
5.585318	12.262266
5.610884	12.318039
5.636332	12.373346
5.661670	12.425220
5.686900	12.479513
5.712028	12.523290
5.737066	12.572405
5.762000	12.624950
5.786846	12.668734
5.811592	12.718999
5.836248	12.764475
5.860812	12.814459
5.885286	12.859569
5.909664	12.913485
5.933946	12.962505
5.958130	13.018368
5.982212	13.070364
6.006204	13.123873
6.030088	13.177822
6.053884	13.229987
6.077582	13.281444
6.101192	13.333302
6.124714	13.381006
6.148148	13.429053
6.171498	13.482073
6.194764	13.522696
6.217956	13.569422
6.241066	13.618834
6.264102	13.657911
6.287068	13.701992
6.309962	13.742750
6.332780	13.788591
6.355532	13.832303
6.378200	13.882424
6.400796	13.927969
6.423308	13.980031
6.445742	14.027472
6.468102	14.073975
6.490382	14.125866
6.512584	14.174304
6.534706	14.226939
6.556752	14.274776
6.578730	14.317713
6.600636	14.363536
6.622472	14.412298
6.644240	14.449419
6.665954	14.489404
6.687598	14.537680
6.709182	14.575451
6.730706	14.616138
6.752170	14.657053
6.773572	14.698197
6.794918	14.739573
6.816198	14.785357
6.837418	14.825827
6.858570	14.876374
6.879656	14.921595
6.900680	14.967092
6.921636	15.014302
6.942528	15.060367
6.963356	15.105263
6.984124	15.151889
7.004830	15.192923
7.025478	15.237136
7.046064	15.286068
7.066592	15.318864
7.087074	15.360809
7.107496	15.402984
7.127874	15.436285
7.148198	15.475826
7.168474	15.512506
7.188698	15.550899
7.208878	15.591031
7.228998	15.634481
7.249066	15.675046
7.269080	15.720540
7.289036	15.761553
7.308944	15.804370
7.328790	15.850619
7.348582	15.895531
7.368320	15.939080
7.388004	15.982869
7.407636	16.023629
7.427218	16.061312
7.446752	16.105776
7.466238	16.135555
7.485684	16.177099
7.505078	16.220532
7.524428	16.252419
7.543738	16.289498
7.563002	16.321658
7.582226	16.360757
7.601410	16.394910
7.620546	16.437802
7.639638	16.474004
7.658680	16.520786
7.677672	16.560847
7.696622	16.601103
7.715520	16.641554
7.734374	16.685748
7.753178	16.726614
7.771938	16.767681
7.790654	16.807151
7.809322	16.848614
7.827946	16.888467
7.846530	16.921214
7.865076	16.957749
7.883582	16.994443
7.902052	17.025757
7.920484	17.060892
7.938880	17.094312
7.957238	17.131599
7.975560	17.163421
7.993842	17.202895
8.012086	17.238766
8.030286	17.280488
8.048446	17.318592
8.066566	17.360702
8.084640	17.401089
8.102672	17.441665
8.120664	17.480484
8.138616	17.521431
8.156528	17.556682
8.174406	17.592074
8.192240	17.635526
8.210040	17.665276
8.227806	17.701108
8.245532	17.741092
8.263228	17.771200
8.280890	17.801409
8.298522	17.833746
8.316122	17.866200
8.333690	17.898773
8.351222	17.937608
8.368720	17.972498
8.386178	18.015785
8.403600	18.048906
8.420988	18.090479
8.438334	18.125967
8.455648	18.167896
8.472920	18.205799
8.490158	18.245979
8.507362	18.279953
8.524530	18.316189
8.541664	18.356858
8.558764	18.384788
8.575838	18.414963
8.592878	18.456072
8.609890	18.484306
8.626870	18.516991
8.643820	18.547601
8.660744	18.580510
8.677642	18.604718
8.694518	18.631198
8.711374	18.644467
8.728222	18.651108
8.745074	18.635619
8.761952	18.604718
8.778858	18.556365
8.795814	18.503903
8.812820	18.438741
8.829882	18.389093
8.846988	18.341853
8.864132	18.303383
8.881308	18.277826
8.898510	18.245979
8.915740	18.218468
8.932996	18.197362
8.950278	18.159495
8.967596	18.123876
8.984952	18.080068
9.002350	18.032331
9.019802	17.974555
9.037302	17.927372
9.054856	17.870265
9.072458	17.819584
9.090112	17.771200
9.107812	17.731079
9.125544	17.695126
9.143312	17.667263
9.161110	17.635526
9.178938	17.607850
9.196800	17.574360
9.214694	17.537081
9.232630	17.496061
9.250616	17.439728
9.268654	17.391456
9.286744	17.341536
9.304894	17.280488
9.323098	17.233092
9.341356	17.180316
9.359664	17.135337
9.378020	17.094312
9.396416	17.060892
9.414850	17.023912
9.433320	16.992604
9.451830	16.954089
9.470386	16.912105
9.488986	16.864895
9.507640	16.819749
9.526344	16.767681
9.545110	16.719493
9.563926	16.673350
9.582794	16.627462
9.601708	16.590582
9.620672	16.543405
9.639682	16.505163
9.658740	16.463645
9.677854	16.413755
9.697020	16.369282
9.716244	16.313182
9.735532	16.264199
9.754880	16.208816
9.774290	16.162119
9.793760	16.110732
9.813282	16.071172
9.832854	16.030170
9.852478	15.991004
9.872146	15.953649
9.891864	15.911632
9.911634	15.868232
9.931464	15.821881
9.951356	15.767881
9.971312	15.715821
9.991334	15.665666
10.011418	15.614278
10.031572	15.564767
10.051780	15.524771
10.072052	15.474301
10.092386	15.427188
10.112784	15.372835
10.133254	15.320358
10.153798	15.268238
10.174406	15.217945
10.195086	15.166519
10.215830	15.121258
10.236638	15.073374
10.257512	15.030106
10.278442	14.985655
10.299438	14.942887
10.320494	14.896124
10.341622	14.846846
10.362818	14.795105
10.384092	14.739573
10.405442	14.692698
10.426866	14.632476
10.448374	14.582216
10.469952	14.533645
10.491612	14.480055
10.513346	14.428183
10.535162	14.371421
10.557062	14.317713
10.579052	14.257932
10.601126	14.206352
10.623280	14.153869
10.645510	14.108104
10.667816	14.060117
10.690202	14.012456
10.712660	13.962634
10.735200	13.913165
10.757824	13.859152
10.780538	13.804344
10.803344	13.747561
10.826238	13.696018
10.849218	13.647231
10.872288	13.587028
10.895458	13.532015
10.918718	13.479759
10.942084	13.415290
10.965554	13.354840
10.989130	13.293808
11.012814	13.235561
11.036602	13.180033
11.060482	13.128260
11.084468	13.070364
11.108548	13.019447
11.132732	12.962505
11.157024	12.906058
11.181414	12.853255
11.205906	12.800883
11.230498	12.745832
11.255202	12.692278
11.280016	12.631042
11.304944	12.573412
11.329992	12.513314
11.355162	12.446881
11.380468	12.385053
11.405888	12.328674
11.431444	12.263224
11.457126	12.200360
11.482946	12.134386
11.508904	12.069123
11.535006	12.005475
11.561236	11.947036
11.587600	11.886465
11.614094	11.828286
11.640720	11.769791
11.667486	11.708380
11.694384	11.647607
11.721426	11.589172
11.748604	11.527088
11.775934	11.466504
11.803414	11.399103
11.831052	11.335760
11.858844	11.273118
11.886804	11.198377
11.914940	11.133293
11.943244	11.065842
11.971734	10.991507
12.000408	10.920442
12.029268	10.850289
12.058316	10.778812
12.087558	10.710462
12.116984	10.642973
12.146600	10.572058
12.176404	10.509108
12.206396	10.440654
12.236586	10.373770
12.266966	10.307063
12.297544	10.241875
12.328324	10.170916
12.359324	10.100285
12.390544	10.026786
12.421996	9.951196
12.453684	9.877980
12.485620	9.795437
12.517820	9.719071
12.550268	9.644479
12.582992	9.560538
12.615990	9.479761
12.649276	9.396963
12.682850	9.316704
12.716720	9.235632
12.750882	9.158094
12.785336	9.078173
12.820086	9.003246
12.855132	8.924979
12.890496	8.846068
12.926168	8.766094
12.962170	8.688033
12.998500	8.606632
13.035186	8.522578
13.072240	8.436524
13.109674	8.349526
13.147508	8.259524
13.185768	8.163373
13.224476	8.070679
13.263630	7.977230
13.303268	7.877219
13.343398	7.780842
13.384036	7.681907
13.425194	7.583625
13.466900	7.484972
13.509146	7.388158
13.551958	7.290093
13.595336	7.194926
13.639302	7.097399
13.683884	6.999360
13.729088	6.900353
13.774960	6.799395
13.821534	6.693639
13.868858	6.585872
13.916986	6.473773
13.965958	6.358470
14.015836	6.241740
14.066690	6.116332
14.118594	5.992432
14.171596	5.865558
14.225798	5.731369
14.281284	5.596595
14.338132	5.458893
14.396434	5.321306
14.456290	5.181068
14.517780	5.041067
14.581030	4.897413
14.646170	4.753363
14.713346	4.604955
14.782772	4.452623
14.854650	4.295079
14.929282	4.131826
15.007046	3.958062
15.088436	3.773504
15.174098	3.576087
15.264878	3.362582
15.361976	3.130323
15.467048	2.875494
15.582550	2.599236
15.712442	2.287690
15.864650	1.920336
16.059856	1.455668
16.511894	0.611062
16.839316	0.598305
17.299598	1.395990
17.503190	1.841626
17.661928	2.192778
17.797412	2.492220
17.917858	2.758251
18.027392	3.002975
18.128588	3.226713
18.223166	3.433435
18.312356	3.625528
18.397050	3.804947
18.477920	3.973983
18.555518	4.131717
18.630232	4.283717
18.702400	4.429895
18.772232	4.572649
18.839944	4.711023
18.905700	4.848885
18.969634	4.982859
19.031878	5.116600
19.092522	5.247357
19.151674	5.377414
19.209430	5.504806
19.265872	5.632315
19.321070	5.753200
19.375136	5.871697
19.428112	5.990833
19.480076	6.103735
19.531096	6.213839
19.581234	6.321875
19.630538	6.424788
19.679062	6.525408
19.726858	6.622803
19.773958	6.717398
19.820414	6.811189
19.866226	6.904903
19.911430	6.995308
19.956048	7.088431
20.000084	7.180455
20.043560	7.274226
20.086476	7.367022
20.128852	7.460443
20.170710	7.551905
20.212064	7.644522
20.252924	7.732961
20.293322	7.821912
20.333254	7.913332
20.372750	7.997130
20.411830	8.081059
20.450514	8.163798
20.488820	8.241756
20.526754	8.320777
20.564344	8.395940
20.601592	8.471558
20.638522	8.545761
20.675122	8.620802
20.711412	8.693322
20.747398	8.768051
20.783080	8.840094
20.818470	8.916367
20.853552	8.992937
20.888334	9.071358
20.922826	9.145830
20.957034	9.224785
20.990958	9.296303
21.024624	9.368380
21.058020	9.444422
21.091166	9.513635
21.124066	9.583870
21.156728	9.655743
21.189154	9.722681
21.221358	9.788113
21.253352	9.851341
21.285138	9.914766
21.316724	9.979646
21.348106	10.042171
21.379294	10.104183
21.410288	10.168283
21.441088	10.230535
21.471698	10.298953
21.502106	10.363504
21.532320	10.430947
21.562346	10.495065
21.592184	10.564947
21.621832	10.627851
21.651306	10.690780
21.680596	10.759616
21.709716	10.818902
21.738676	10.878091
21.767472	10.940979
21.796116	10.998434
21.824600	11.058052
21.852940	11.114387
21.881132	11.170504
21.909190	11.226389
21.937102	11.284456
21.964876	11.336579
21.992518	11.394968
22.020022	11.448953
22.047390	11.511039
22.074612	11.569539
22.101694	11.630359
22.128638	11.689212
22.155446	11.751300
22.182118	11.804286
22.208672	11.860437
22.235086	11.924363
22.261374	11.977097
22.287542	12.034909
22.313590	12.088628
22.339522	12.142829
22.365338	12.193730
22.391052	12.244106
22.416654	12.292975
22.442158	12.347086
22.467548	12.398740
22.492838	12.445894
22.518026	12.499374
22.543110	12.548301
22.568094	12.603677
22.592966	12.656485
22.617732	12.712822
22.642390	12.767588
22.666946	12.823874
22.691392	12.876435
22.715744	12.926237
22.739994	12.983934
22.764146	13.031328
22.788208	13.080159
22.812180	13.132651
22.836060	13.181139
22.859846	13.232216
22.883550	13.276953
22.907168	13.321994
22.930712	13.369617
22.954168	13.417582
22.977542	13.461276
23.000838	13.511064
23.024050	13.556540
23.047182	13.607037
23.070226	13.659098
23.093182	13.710363
23.116056	13.757193
23.138850	13.812841
23.161556	13.856707
23.184188	13.905775
23.206736	13.960152
23.229202	14.006209
23.251596	14.051313
23.273920	14.099240
23.296168	14.142400
23.318344	14.188387
23.340456	14.229517
23.362496	14.274776
23.384472	14.319018
23.406378	14.363536
23.428218	14.404368
23.449996	14.448090
23.471706	14.490741
23.493354	14.539026
23.514924	14.586278
23.536426	14.635203
23.557856	14.683084
23.579218	14.734043
23.600508	14.775622
23.621740	14.820231
23.642902	14.869333
23.664000	14.911680
23.685036	14.954268
23.706014	14.999965
23.726932	15.041620
23.747786	15.086403
23.768584	15.122714
23.789328	15.165054
23.810018	15.204688
23.830652	15.247489
23.851228	15.286068
23.871752	15.329329
23.892220	15.368323
23.912632	15.415077
23.932982	15.459072
23.953274	15.503319
23.973510	15.546282
23.993688	15.595674
24.013806	15.632925
24.033874	15.679740
24.053878	15.728410
24.073828	15.766299
24.093730	15.804370
24.113582	15.847421
24.133384	15.884279
24.153134	15.927766
24.172838	15.961755
24.192492	16.002408
24.212102	16.043268
24.231660	16.081043
24.251174	16.117344
24.270642	16.157132
24.290062	16.195446
24.309438	16.237299
24.328758	16.281056
24.348026	16.326747
24.367246	16.364166
24.386418	16.412040
24.405538	16.448129
24.424616	16.486108
24.443644	16.534698
24.462624	16.569582
24.481560	16.611636
24.500450	16.652140
24.519296	16.689294
24.538098	16.724833
24.556864	16.758736
24.575590	16.794572
24.594274	16.834169
24.612916	16.870329
24.631518	16.906644
24.650078	16.944944
24.668600	16.979746
24.687080	17.022067
24.705512	17.062745
24.723904	17.101756
24.742250	17.142817
24.760556	17.185955
24.778814	17.225533
24.797034	17.259601
24.815212	17.303330
24.833350	17.339622
24.851450	17.372222
24.869514	17.414593
24.887538	17.447477
24.905522	17.486322
24.923474	17.517523
24.941394	17.542957
24.959298	17.558644
24.977190	17.560607
24.995090	17.542957
25.013020	17.507761
25.030990	17.457172
25.049020	17.397235
25.067108	17.339622
25.085250	17.286193
25.103446	17.242550
25.121684	17.212320
25.139950	17.180316
25.158250	17.154050
25.176572	17.139076
25.194920	17.105481
25.213308	17.068307
25.231736	17.029448
25.250220	16.972408
25.268760	16.912105
25.287372	16.848614
25.306052	16.783805
25.324800	16.730177
25.343606	16.680432
25.362464	16.636267
25.381366	16.601103
25.400310	16.566087
25.419292	16.536439
25.438308	16.506897
25.457360	16.470550
25.476458	16.429205
25.495612	16.381232
25.514822	16.325050
25.534102	16.265883
25.553444	16.215509
25.572852	16.160456
25.592316	16.115690
25.611834	16.077752
25.631398	16.039991
25.651006	16.000777
25.670668	15.960133
25.690378	15.913244
25.710154	15.865027
25.729992	15.809142
25.749900	15.748910
25.769882	15.696975
25.789932	15.637594
25.810050	15.595674
25.830220	15.553979
25.850442	15.515570
25.870712	15.478876
25.891034	15.445392
25.911406	15.396945
25.931840	15.351801
25.952334	15.305430
25.972902	15.248969
25.993538	15.192923
26.014254	15.140206
26.035042	15.086403
26.055896	15.041620
26.076814	14.994238
26.097796	14.948576
26.118848	14.901777
26.139964	14.853866
26.161158	14.795105
26.182430	14.740957
26.203784	14.681712
26.225220	14.631113
26.246724	14.584924
26.268296	14.541718
26.289932	14.497428
26.311634	14.458729
26.333398	14.408332
26.355244	14.356972
26.377162	14.308584
26.399162	14.250171
26.421252	14.194798
26.443424	14.143673
26.465680	14.091651
26.488012	14.040010
26.510434	13.983765
26.532938	13.934146
26.555532	13.877519
26.578218	13.821349
26.600996	13.762014
26.623870	13.705578
26.646840	13.648417
26.669900	13.598791
26.693044	13.549524
26.716270	13.501773
26.739580	13.452054
26.762980	13.404987
26.786464	13.346897
26.810056	13.289309
26.833736	13.241139
26.857514	13.183351
26.881398	13.124969
26.905380	13.075804
26.929462	13.017290
26.953648	12.960366
26.977946	12.898640
27.002360	12.836450
27.026896	12.773817
27.051546	12.715910
27.076310	12.655465
27.101190	12.598623
27.126184	12.539286
27.151294	12.486457
27.176514	12.426203
27.201850	12.371397
27.227306	12.312246
27.252878	12.260352
27.278564	12.200360
27.304378	12.140952
27.330306	12.090489
27.356364	12.023854
27.382558	11.963415
27.408888	11.901775
27.435356	11.838091
27.461966	11.774202
27.488724	11.707508
27.515632	11.641565
27.542700	11.574654
27.569920	11.507665
27.597300	11.439781
27.624840	11.375163
27.652538	11.309643
27.680394	11.248094
27.708404	11.184025
27.736572	11.120682
27.764904	11.056496
27.793394	10.999204
27.822046	10.931081
27.850874	10.864548
27.879874	10.801790
27.909060	10.728018
27.938438	10.657415
27.968014	10.589876
27.997784	10.518256
28.027756	10.444819
28.057948	10.367608
28.088360	10.290856
28.119006	10.214568
28.149874	10.140058
28.180978	10.060823
28.212322	9.985991
28.243902	9.909137
28.275724	9.837767
28.307778	9.764383
28.340070	9.692086
28.372610	9.617317
28.405406	9.544852
28.438456	9.465480
28.471784	9.388538
28.505376	9.315599
28.539252	9.233461
28.573428	9.152225
28.607916	9.068739
28.642730	8.981625
28.677876	8.895160
28.713380	8.804419
28.749246	8.713093
28.785500	8.621748
28.822130	8.530909
28.859162	8.436524
28.896608	8.345090
28.934466	8.251281
28.972752	8.162101
29.011454	8.072753
29.050590	7.982500
29.090174	7.891466
29.130220	7.801710
29.170742	7.705270
29.211782	7.606394
29.253342	7.512537
29.295454	7.409766
29.338150	7.307389
29.381466	7.202184
29.425428	7.093553
29.470076	6.980697
29.515470	6.863869
29.561638	6.745958
29.608640	6.626435
29.656498	6.505141
29.705262	6.381201
29.754978	6.259649
29.805680	6.134965
29.857422	6.012157
29.910242	5.886439
29.964204	5.759529
30.019390	5.629287
30.075886	5.497677
30.133776	5.359616
30.193204	5.218072
30.254270	5.075927
30.317130	4.925207
30.381990	4.768804
30.449072	4.605766
30.518666	4.432520
30.591112	4.249760
30.666872	4.055761
30.746448	3.852257
30.830542	3.636018
30.919976	3.407293
31.015916	3.163357
31.119954	2.903183
31.234488	2.618387
31.363498	2.302106
31.514378	1.938130
31.706092	1.485906
32.180306	0.592876
32.492054	0.580748
32.974728	1.419929
33.175236	1.855856
33.332804	2.205122
33.467452	2.508818
33.586900	2.785643
33.695236	3.041055
33.794988	3.279598
33.887884	3.501943
33.975192	3.710747
34.057796	3.907551
34.136418	4.095415
34.211580	4.273229
34.283754	4.442046
34.353306	4.600101
34.420552	4.750344
34.485746	4.893294
34.549112	5.026548
34.610830	5.158609
34.670996	5.287808
34.729754	5.410569
34.787180	5.533311
34.843358	5.653804
34.898350	5.773713
34.952226	5.892401
35.005018	6.011697
35.056780	6.129219
35.107550	6.248693
35.157370	6.365169
35.206296	6.480718
35.254362	6.593336
35.301622	6.704210
35.348118	6.810303
35.393908	6.914934
35.439030	7.013423
35.483520	7.110571
35.527416	7.205818
35.570748	7.294494
35.613556	7.385379
35.655838	7.474999
35.697640	7.559174
35.738968	7.644894
35.779842	7.727635
35.820274	7.812186
35.860274	7.897815
35.899836	7.984529
35.938972	8.071509
35.977678	8.161253
36.015968	8.249114
36.053858	8.336675
36.091348	8.422500
36.128462	8.508728
36.165202	8.592038
36.201598	8.674599
36.237660	8.751442
36.273402	8.828170
36.308838	8.904741
36.343984	8.971878
36.378866	9.043157
36.413466	9.115049
36.447812	9.181111
36.481904	9.250317
36.515742	9.317257
36.549336	9.385733
36.582688	9.454086
36.615794	9.525751
36.648654	9.596165
36.681264	9.670605
36.713630	9.742581
36.745758	9.816250
36.777646	9.887306
36.809306	9.960030
36.840738	10.028066
36.871964	10.097039
36.902984	10.159733
36.933808	10.224542
36.964436	10.290856
36.994878	10.348484
37.025148	10.409518
37.055238	10.471976
37.085166	10.525304
37.114930	10.584168
37.144532	10.640089
37.173976	10.699519
37.203262	10.755932
37.232382	10.820392
37.261340	10.878844
37.290130	10.944028
